Time (s),[ps],[e_ps],[mo],[so],[fa],[ofa]
0.0,237329.457756178,0.0,2.81260547270523e-07,0.0,0.00100531722303704,0.0
603.0150753768844,233567.10338888955,3762.3543672885075,-4.4889642194944423e-13,5.572768139116062e-09,0.0010050415348090117,2.756882280285406e-07
1206.0301507537688,229864.3881397804,7465.0696163975945,-2.1089225009202708e-14,5.5727596814800126e-09,0.0010050415352283613,2.756878086789797e-07
1809.0452261306532,226220.37164674714,11109.08610943085,-1.4937058871107818e-13,5.572762158828951e-09,0.0010050415351025575,2.7568793448299457e-07
2412.0603015075376,222634.1112272209,14695.346528957043,4.5080824269959045e-13,5.5727502726667624e-09,0.00100504153569085,2.756873461903254e-07
3015.075376884422,219104.72528546935,18224.73247070861,7.616032870192256e-13,5.572744070312959e-09,0.0010050415359954426,2.7568704159763475e-07
3618.0904522613064,215631.29103947524,21698.166716702748,-1.1214848047044136e-13,5.572761406231711e-09,0.0010050415351390265,2.7568789801348355e-07
4221.10552763819,212212.9182311084,25116.53952506957,-6.789875566203869e-13,5.572772696454859e-09,0.0010050415345834777,2.756884535623373e-07
4824.120603015075,208848.73635053562,28480.72140564233,3.3140880469305656e-14,5.572758572813817e-09,0.0010050415352814827,2.7568775555754447e-07
5427.13567839196,205537.86414187375,31791.593614304133,1.4049921756712926e-16,5.572759203201997e-09,0.0010050415352491127,2.7568778792753726e-07
6030.150753768844,202279.4724416649,35049.985314512975,-1.3332660308141167e-14,5.572759471363894e-09,0.0010050415352359076,2.7568780113253484e-07
6633.165829145728,199072.77135568412,38256.68640049376,-1.720544852795619e-13,5.572762629001244e-09,0.0010050415350803435,2.756879566967228e-07
7236.180904522613,195916.9066304087,41412.5511257692,-9.88961762445999e-13,5.572778888908763e-09,0.0010050415342796961,2.756887573440932e-07
7839.195979899498,192811.0638716386,44518.39388453927,1.8596631660429274e-14,5.572758866788441e-09,0.0010050415352672322,2.7568776980781957e-07
8442.21105527638,189754.45695911767,47575.00079706021,-2.1983881654765214e-13,5.5727635793935806e-09,0.0010050415350335094,2.756880035306596e-07
9045.226130653265,186746.30622695666,50583.15152922122,-7.009440447967463e-13,5.572773133524584e-09,0.0010050415345619582,2.7568847508175877e-07
9648.24120603015,183785.84331709915,53543.6144390787,-2.968402414187787e-12,5.572818166648996e-09,0.001005041532339533,2.756906975070012e-07
10251.256281407035,180872.31186299142,56457.145893186425,-6.203004140918422e-13,5.572771509832909e-09,0.0010050415346409777,2.756883960618237e-07
10854.27135678392,178004.9683191624,59324.489437015436,9.972970970472517e-14,5.572757222029246e-09,0.0010050415353467202,2.756876903195029e-07
11457.286432160803,175183.08095268087,62146.37680349697,-2.3592222245769244e-13,5.572763904239577e-09,0.0010050415350177507,2.7568801928922455e-07
12060.301507537688,172405.92865459004,64923.529101587796,-8.923816291593693e-13,5.572776882102777e-09,0.0010050415343742691,2.7568866277076676e-07
12663.316582914573,169672.8022626495,67656.65549352835,-8.772325754493975e-14,5.572760935617801e-09,0.0010050415351629811,2.7568787405887675e-07
13266.331658291456,166983.0035919761,70346.45416420176,-1.2655111137989194e-13,5.572761749073976e-09,0.0010050415351249666,2.75687912073272e-07
13869.34673366834,164335.84602524855,72993.61173092929,-5.040091765580231e-14,5.572760188087482e-09,0.001005041535199556,2.756878374840673e-07
14472.361809045226,161730.65335685393,75598.80439932394,1.2715423451654855e-13,5.572756678417032e-09,0.0010050415353736017,2.7568766343859307e-07
15075.37688442211,159166.76054375988,78162.69721241797,-3.040120547381049e-14,5.5727598121489274e-09,0.00100504153521918,2.75687817860306e-07
15678.391959798995,156643.5126499215,80685.94510625635,-3.7777823441987265e-13,5.572766710388671e-09,0.0010050415348787014,2.7568815833909793e-07
16281.407035175878,154160.26554657947,83169.19220959838,3.730809685472416e-16,5.572759197514018e-09,0.0010050415352493398,2.75687787700667e-07
16884.42211055276,151716.3848361807,85613.07291999714,2.4857114495214788e-12,5.572709866528612e-09,0.001005041537685347,2.75685351693284e-07
17487.437185929648,149311.2461829231,88018.21157325474,-9.441427395843974e-13,5.572777873029629e-09,0.0010050415343234992,2.7568871354096584e-07
18090.45226130653,146944.23583050063,90385.22192567722,4.602632553471885e-13,5.572750062071216e-09,0.0010050415357000947,2.756873369459361e-07
18693.467336683418,144614.74938287388,92714.70837330398,-1.6947303898310174e-14,5.5727594873647615e-09,0.0010050415352323091,2.7568780473119826e-07
19296.4824120603,142322.1919451715,95007.2658110063,4.854284444105384e-13,5.572749510447448e-09,0.0010050415357247082,2.7568731233237164e-07
19899.497487437184,140065.97811524224,97263.47964093555,3.6634315836613746e-13,5.572751903257847e-09,0.0010050415356080155,2.756874290248493e-07
20502.51256281407,137845.5317115727,99483.92604460508,-5.092610676698724e-13,5.5727693497150005e-09,0.0010050415347498578,2.756882871826147e-07
21105.527638190953,135660.2857523035,101669.17200387426,-5.325377243310158e-13,5.572769811002258e-09,0.0010050415347270425,2.7568830999798063e-07
21708.54271356784,133509.68217554962,103819.77558062815,-3.323260109656201e-14,5.572759851047928e-09,0.0010050415352163878,2.756878206528124e-07
22311.557788944723,131393.17183214021,105936.28592403758,4.0387540339857964e-14,5.572758400110624e-09,0.001005041535288557,2.756877484836147e-07
22914.572864321606,129310.21422130382,108019.24353487398,-5.440736097224718e-15,5.5727593147226485e-09,0.0010050415352436434,2.756877933972789e-07
23517.587939698493,127260.2777822913,110069.1799738865,4.368883066354586e-14,5.57275833901978e-09,0.0010050415352917971,2.756877452434155e-07
24120.603015075376,125242.84034748888,112086.61740868892,1.5796374153767503e-14,5.572758892162848e-09,0.0010050415352644581,2.756877725827296e-07
24723.61809045226,123257.38627432818,114072.07148184962,1.3314704411031021e-14,5.57275894227567e-09,0.0010050415352620265,2.756877750142876e-07
25326.633165829146,121303.40788664234,116026.04986953546,9.815767063982949e-14,5.572757260569677e-09,0.0010050415353451876,2.756876918530297e-07
25929.64824120603,119380.40682485451,117949.05093132329,2.719714804328384e-14,5.572758668382289e-09,0.001005041535275635,2.756877614057407e-07
26532.66331658291,117487.89873739955,119841.55901877827,-4.1995863378186776e-14,5.572760040664923e-09,0.0010050415352078142,2.7568782922647005e-07
27135.6783919598,115625.39470936614,121704.06304681167,-5.335461549138155e-14,5.572760264833727e-09,0.0010050415351966796,2.7568784036105357e-07
27738.69346733668,113792.41891126684,123537.03884491097,-4.107450089868917e-14,5.572760020129446e-09,0.001005041535208715,2.756878283256431e-07
28341.708542713568,111988.50705046422,125340.95070571359,1.8016890815648615e-14,5.572758848537824e-09,0.0010050415352666348,2.756877704058433e-07
28944.72361809045,110213.18521879477,127116.27253738305,7.45163799677216e-14,5.572757729199516e-09,0.001005041535322015,2.7568771502569276e-07
29547.738693467334,108466.01716896112,128863.4405872167,4.074075715277236e-14,5.57275839920565e-09,0.0010050415352889093,2.7568774813130963e-07
30150.75376884422,106746.53470008748,130582.92305609034,-7.361529319063411e-14,5.572760666698569e-09,0.0010050415351768207,2.7568786021986717e-07
30753.768844221104,105054.32298505973,132275.1347711181,-1.6294541438044447e-16,5.572759210207653e-09,0.0010050415352488165,2.7568778822401165e-07
31356.78391959799,103388.9255061225,133940.53225005532,2.5462166671031577e-13,5.572754157963024e-09,0.001005041535498549,2.7568753849164663e-07
31959.798994974873,101749.93902514923,135579.51873102857,1.4952372800836772e-13,5.572756241741236e-09,0.0010050415353955347,2.756876415058109e-07
32562.814070351757,100136.92847714163,137192.52927903616,-3.892824270667366e-13,5.572766925423809e-09,0.0010050415348674122,2.7568816962828857e-07
33165.82914572864,98549.49039279748,138779.9673633803,-8.407093917714602e-13,5.572775874941877e-09,0.0010050415344249348,2.756886121057373e-07
33768.84422110552,96987.2181729649,140342.23958321288,-8.22515496785467e-13,5.572775509649038e-09,0.0010050415344427634,2.756885942771304e-07
34371.85929648241,95449.70839700727,141879.7493591705,-6.33074104214742e-13,5.572771748594265e-09,0.0010050415346284436,2.756884085967878e-07
34974.874371859296,93936.57792299955,143392.87983317822,-7.623032277036341e-13,5.572774311461981e-09,0.0010050415345017774,2.7568853526305183e-07
35577.88944723618,92447.42699361249,144882.0307625653,-1.0195892593208578e-12,5.5727794169897774e-09,0.001005041534249597,2.75688787443573e-07
36180.90452261306,90981.8919552057,146347.56580097208,-9.29943644691511e-13,5.57277763946615e-09,0.001005041534337465,2.7568869957549165e-07
36783.919597989945,89539.57957121606,147789.8781849617,-5.682390537511096e-13,5.572770464641355e-09,0.0010050415346919948,2.7568834504572986e-07
37386.934673366835,88120.14234822201,149209.31540795576,-5.313627279181628e-13,5.572769733961366e-09,0.0010050415347281404,2.756883089000878e-07
37989.94974874372,86723.19856134187,150606.25919483593,-7.851272128716019e-13,5.572774768741406e-09,0.0010050415344794107,2.756885576297933e-07
38592.9648241206,85348.40603802804,151981.05171814974,-9.280306903883695e-13,5.572777603118191e-09,0.0010050415343393418,2.756886976988938e-07
39195.979899497484,83995.40466774219,153334.05308843558,-8.788754755079038e-13,5.572776625798113e-09,0.0010050415343875196,2.7568864952099856e-07
39798.99497487437,82663.85186998844,154665.60588618933,-7.147086444188333e-13,5.572773368280638e-09,0.0010050415345484289,2.756884886116847e-07
40402.01005025126,81353.41001577694,155976.04774040083,-4.790527578186284e-13,5.5727686973564255e-09,0.001005041534779414,2.75688257626723e-07
41005.02512562814,80063.73771949354,157265.72003668424,-2.3568690649062864e-13,5.572763875644476e-09,0.001005041535017958,2.756880190825844e-07
41608.040201005024,78794.51608003682,158534.94167614097,-2.556407723423737e-13,5.5727642731153445e-09,0.0010050415349984016,2.7568803863897723e-07
42211.05527638191,77545.40769450473,159784.05006167304,-5.09525960232718e-13,5.572769307714593e-09,0.0010050415347495512,2.7568828748956136e-07
42814.07035175879,76316.10918886214,161013.3485673156,-6.840861969973655e-13,5.57277276761321e-09,0.0010050415345784509,2.756884585898952e-07
43417.08542713568,75106.28942393683,162223.16833224092,-8.3753148710914e-13,5.57277580620865e-09,0.001005041534428044,2.756886089965851e-07
44020.10050251256,73915.65785538439,163413.79990079335,-5.509219269496184e-13,5.572770122738978e-09,0.0010050415347089702,2.7568832807049085e-07
44623.115577889446,72743.89468465329,164585.56307152446,2.6236532545778636e-13,5.572753999616099e-09,0.0010050415355061344,2.756875309063589e-07
45226.13065326633,71590.71019385429,165738.74756232346,7.371324675205513e-13,5.572744590217504e-09,0.001005041535971492,2.756870655486138e-07
45829.14572864321,70455.80593231959,166873.65182385815,4.1610374082967737e-13,5.5727509609508445e-09,0.001005041535656834,2.7568738020660624e-07
46432.160804020095,69338.89141789678,167990.566338281,-1.4641598798616536e-13,5.5727621178894665e-09,0.0010050415351054711,2.756879315693962e-07
47035.175879396986,68239.68611424557,169089.7716419322,-1.9515993043131867e-13,5.572763080212602e-09,0.0010050415350576895,2.756879793510154e-07
47638.19095477387,67157.90141759017,170171.5563385876,6.6762703789509245e-15,5.572759069650006e-09,0.0010050415352555152,2.7568778152537716e-07
48241.20603015075,66093.27168845288,171236.1860677249,-3.677503032140634e-15,5.572759274338967e-09,0.001005041535245366,2.756877916744615e-07
48844.221105527635,65045.512412667966,172283.9453435098,-8.469073066848154e-14,5.5727608861767205e-09,0.0010050415351659644,2.7568787107585096e-07
49447.23618090452,64014.37028582645,173315.08747035134,-6.480592264131848e-14,5.5727604928884415e-09,0.001005041535185456,2.7568785158433043e-07
50050.25125628141,62999.56773893521,174329.89001724258,2.5667125235222418e-14,5.572758697252461e-09,0.0010050415352741335,2.7568776290691705e-07
50653.26633165829,62000.85847377994,175328.59928239786,5.1563707950083013e-14,5.57275818340065e-09,0.0010050415352995162,2.756877375241854e-07
51256.281407035174,61017.977821685934,176311.47993449186,-1.543825547523778e-15,5.572759237178851e-09,0.0010050415352474624,2.7568778957794077e-07
51859.29648241206,60050.6795900646,177278.77816611322,-4.196842314649573e-14,5.572760039295444e-09,0.00100504153520784,2.756878292004221e-07
52462.31155778894,59098.71621075012,178230.74154542768,-3.0614737037201084e-15,5.572759267411648e-09,0.001005041535245975,2.7568779106535646e-07
53065.32663316582,58161.84164454384,179167.61611163398,5.216235777810137e-14,5.572758171744463e-09,0.0010050415353001032,2.7568773693719256e-07
53668.34170854271,57239.8225895222,180089.63516665561,2.1062294832612713e-14,5.572758788611529e-09,0.00100504153526962,2.7568776742039045e-07
54271.3567839196,56332.415286814634,180997.04246936316,-5.534578368951529e-14,5.572760304339123e-09,0.0010050415351947276,2.756878423127445e-07
54874.37185929648,55439.39827903707,181890.05947714075,-3.593658743860902e-14,5.572759919360432e-09,0.001005041535213752,2.7568782328852874e-07
55477.38693467336,54560.53183761685,182768.92591856097,6.18802371881288e-14,5.572757979070613e-09,0.0010050415353096284,2.7568772741199483e-07
56080.402010050246,53695.60430126161,183633.8534549162,5.233812316965399e-14,5.572758168304602e-09,0.0010050415353002756,2.7568773676487853e-07
56683.417085427136,52844.38308558143,184485.07467059637,-5.259004855535714e-14,5.572760249547927e-09,0.0010050415351974286,2.7568783961181317e-07
57286.43216080402,52006.659503155235,185322.79825302257,-7.706989784969332e-14,5.572760735146284e-09,0.0010050415351734344,2.756878636060699e-07
57889.4472361809,51182.214378222125,186147.2433779557,2.928234701281907e-14,5.572758625757055e-09,0.0010050415352776771,2.7568775936321866e-07
58492.462311557785,50370.83873959716,186958.61901658063,1.1031318580691293e-13,5.5727570185508495e-09,0.0010050415353571008,2.7568767993959104e-07
59095.47738693467,49572.32704539894,187757.13071077885,2.5468533095733077e-15,5.572759155913026e-09,0.0010050415352514718,2.756877855685687e-07
59698.49246231156,48786.47111333703,188542.98664284075,-1.5764814174315303e-13,5.5727623331642086e-09,0.0010050415350944541,2.7568794258632055e-07
60301.50753768844,48013.07675603597,189316.38100014182,-5.089402351318117e-14,5.572760215947048e-09,0.001005041535199091,2.7568783794942403e-07
60904.522613065325,47251.93827018377,190077.519485994,2.2595018602745339e-13,5.572754725289483e-09,0.0010050415354704446,2.7568756659587425e-07
61507.53768844221,46502.87088166443,190826.58687451336,1.2883519227485811e-13,5.5727566512740565e-09,0.0010050415353752556,2.756876617848896e-07
62110.55276381909,45765.67280729363,191563.78494888416,-3.2048397703979234e-13,5.5727655624057564e-09,0.0010050415349348476,2.7568810219293706e-07
62713.56783919598,45040.16687185732,192289.29088432048,-2.563767000746319e-13,5.572764291095463e-09,0.0010050415349976837,2.7568803935697757e-07
63316.582914572864,44326.158411852775,193003.29934432503,2.9743414042809945e-13,5.572753307863094e-09,0.0010050415355405112,2.7568749652937465e-07
63919.59798994975,43623.4706806396,193705.98707553823,4.671051030350725e-13,5.572749942825451e-09,0.0010050415357068172,2.7568733022345815e-07
64522.61306532663,42931.922015226526,194397.53574095128,-2.173553652447912e-13,5.572763516861781e-09,0.0010050415350359308,2.756880011099045e-07
65125.62814070351,42251.33524227826,195078.12251389952,-8.159532728664991e-13,5.572775388231636e-09,0.0010050415344492042,2.7568858783644923e-07
65728.6432160804,41581.53956212844,195747.91819404936,1.8959250568765757e-14,5.572758830750725e-09,0.0010050415352675591,2.756877694813861e-07
66331.65829145728,40922.35711486819,196407.1006413096,1.5656067928959396e-12,5.572728161152399e-09,0.001005041536783537,2.7568625350340144e-07
66934.67336683416,40273.623253962556,197055.83450221524,3.7281274816581295e-13,5.572751835177577e-09,0.001005041535614417,2.75687422623405e-07
67537.68844221105,39635.17316555398,197694.28459062378,-4.2868387083790813e-13,5.572767720520974e-09,0.0010050415348288057,2.756882082346745e-07
68140.70351758794,39006.84371554277,198322.614040635,-4.4955504618799704e-13,5.572768105171306e-09,0.001005041534808319,2.756882287211954e-07
68743.71859296483,38388.47493693666,198940.98281924112,-6.039937809974367e-13,5.572771178865312e-09,0.001005041534656954,2.756883800862144e-07
69346.73366834171,37779.90952729684,199549.54822888094,-6.51439111566701e-14,5.57276049449424e-09,0.0010050415351851194,2.756878519207032e-07
69949.74874371859,37180.99158167012,200148.46617450763,1.4318778317154e-13,5.572756365101247e-09,0.0010050415353893218,2.7568764771840283e-07
70552.76381909547,36591.567961094064,200737.8897950837,-5.600134801124032e-13,5.572770316811446e-09,0.0010050415347000721,2.7568833696796633e-07
71155.77889447236,36011.48841402237,201317.9693421554,1.0411295864904673e-12,5.572738554461462e-09,0.0010050415362694528,2.7568676758722505e-07
71758.79396984924,35440.60521260785,201888.85254356993,1.237806691756736e-12,5.5727346649655645e-09,0.0010050415364622404,2.7568657479960526e-07
72361.80904522612,34878.771747610466,202450.6860085673,-2.862059843014572e-14,5.572759797475092e-09,0.0010050415352209458,2.7568781609439205e-07
72964.824120603,34325.84478170605,203003.6129744717,-4.108542326133416e-13,5.572767346556531e-09,0.0010050415348462612,2.756881907789421e-07
73567.83919597989,33781.68364786653,203547.77410831125,-3.989772341468501e-13,5.572767106779041e-09,0.0010050415348578983,2.7568817914171546e-07
74170.85427135679,33246.148905462986,204083.3088507148,-2.3778501699642657e-13,5.57276391771653e-09,0.0010050415350159015,2.756880211385576e-07
74773.86934673367,32719.103662776306,204610.35409340146,-2.620782212586732e-13,5.572764402663652e-09,0.0010050415349920933,2.7568804494682137e-07
75376.88442211055,32200.413584717793,205129.04417145997,2.9559682668493516e-13,5.572753342731478e-09,0.0010050415355387084,2.756874983317178e-07
75979.89949748744,31689.946619399685,205639.51113677808,7.9267677328843e-15,5.5727590503196604e-09,0.001005041535256746,2.75687780294191e-07
76582.91457286432,31187.571660785983,206141.88609539176,-4.106362416677978e-13,5.572767353121975e-09,0.0010050415348464856,2.7568819055439566e-07
77185.9296482412,30693.16063095668,206636.29712522106,1.3991985052546692e-12,5.5727314532075244e-09,0.0010050415366204203,2.7568641661957874e-07
77788.94472361809,30206.587743570457,207122.87001260728,1.0774936906744233e-12,5.572737852400555e-09,0.0010050415363051148,2.756867319252022e-07
78391.95979899497,29727.728335615695,207601.72942056204,-8.602767664988318e-14,5.5727609347287375e-09,0.0010050415351646757,2.7568787236423577e-07
78994.97487437185,29256.459985892823,208072.9977702849,-5.673407977808547e-13,5.572770447380471e-09,0.0010050415346928754,2.756883441646993e-07
79597.98994974873,28792.662566035713,208536.79519014203,-1.0481459787006613e-13,5.572761275780482e-09,0.00100504153514623,2.7568789081009577e-07
80201.00502512562,28336.220325812035,208993.23743036567,1.4441929781041809e-13,5.5727563306790666e-09,0.0010050415353905187,2.756876465213012e-07
80804.02010050252,27887.01323463392,209442.44452154377,4.1132490441072277e-13,5.572751048284085e-09,0.001005041535652142,2.7568738489809574e-07
81407.0351758794,27444.929222385723,209884.528533792,3.7690354977900603e-13,5.572751737767081e-09,0.00100504153561841,2.756874186299739e-07
82010.05025125628,27009.8531850941,210319.60457108362,-1.274895116314007e-13,5.572761738158203e-09,0.0010050415351240173,2.756879130226487e-07
82613.06532663316,26581.67430515693,210747.7834510208,-6.189875681776033e-13,5.5727714801035e-09,0.0010050415346422612,2.756883947787633e-07
