Time (s),[ps],[e_ps],[mo],[so],[fa],[ofa]
0.0,237329.457756178,0.0,2.81260547270523e-07,0.0,0.00100531722303704,0.0
603.0150753768844,233567.10674143632,3762.3510147442935,5537323.519257445,-2.0309248107197532e-05,5537323.520245179,-5537323.519240022
1206.0301507537688,229864.39975617136,7465.058000009366,2790777.060417842,-2.0312616229685973e-05,2790777.061405574,-2790777.060400417
1809.0452261306532,226220.39127201424,11109.066484166411,1875343.9505806088,-2.031373942278771e-05,1875343.9515683397,-1875343.9505631828
2412.0603015075376,222634.15074982247,14695.307006358198,1417687.5243022852,-2.0314301090389826e-05,1417687.5252900156,-1417687.524284859
3015.075376884422,219104.76231725074,18224.695438929903,1143137.9852027465,-2.0314638099187935e-05,1143137.9861904774,-1143137.9851853207
3618.0904522613064,215631.32487510354,21698.132881077156,960144.3264442768,-2.0314862281612e-05,960144.3274320078,-960144.3264268511
4221.10552763819,212212.9513549075,25116.50640127315,829467.3475916758,-2.0315014126348547e-05,829467.3485794064,-829467.3475742497
4824.120603015075,208848.76884018758,28480.68891599309,731489.9709314599,-2.0315142753428796e-05,731489.9719191898,-731489.9709140331
5427.13567839196,205537.91826331645,31791.539492864267,655310.526640475,-2.0315236212759803e-05,655310.5276282046,-655310.5266230479
6030.150753768844,202279.55414501278,35049.90361116789,594390.3491738477,-2.03153109620814e-05,594390.350161577,-594390.3491564203
6633.165829145728,199072.84442120118,38256.61333497948,544568.3586618693,-2.0315372086716023e-05,544568.3596495981,-544568.3586444415
7236.180904522613,195916.97022193676,41412.48753424387,503068.9547621535,-2.0315422972628054e-05,503068.9557498814,-503068.95474472473
7839.195979899498,192811.12567227872,44518.33208390187,467971.96266485634,-2.0315465975850693e-05,467971.963652584,-467971.96264742734
8442.21105527638,189754.5176198677,47574.94013631292,437905.6230668378,-2.031550279461625e-05,437905.62405456515,-437905.6230494085
9045.226130653265,186746.3655389806,50583.09221719997,411863.1117335834,-2.0315534943180892e-05,411863.1127213112,-411863.11171615456
9648.24120603015,183785.90127721085,53543.5564789697,389091.35261006013,-2.0315562814551783e-05,389091.3535977888,-389091.3525926322
10251.256281407035,180872.36890322476,56457.08885295579,369011.86675291776,-2.031558739522868e-05,369011.86774064606,-369011.86673548946
10854.27135678392,178005.02436454265,59324.43339163793,351176.32296853076,-2.0315609264915172e-05,351176.3239562595,-351176.322951103
11457.286432160803,175183.13543970362,62146.322316476944,335230.39124878315,-2.0315628820189395e-05,335230.3922365119,-335230.3912313554
12060.301507537688,172405.98152767387,64923.476228506705,320890.6163500572,-2.0315646403845345e-05,320890.61733778607,-320890.6163326295
12663.316582914573,169672.8534460201,67656.60431016049,307928.0544538854,-2.0315662283792357e-05,307928.0554416141,-307928.0544364576
13266.331658291456,166983.05322081904,70346.40453536164,296153.69648232596,-2.0315676777408086e-05,296153.69747005566,-296153.6964648991
13869.34673366834,164335.89404854298,72993.56370763772,285413.3057442952,-2.0315689931494407e-05,285413.3067320249,-285413.30572686833
14472.361809045226,161730.6999536097,75598.757802571,275577.9586981535,-2.0315702021984684e-05,275577.9596858828,-275577.95868072624
15075.37688442211,159166.8056405044,78162.65211567623,266538.22014738485,-2.0315713156158586e-05,266538.22113511414,-266538.22012995766
15678.391959798995,156643.55638263727,80685.90137354341,258202.89416527114,-2.0315723213363807e-05,258202.89515300054,-258202.89414784405
16281.407035175878,154160.30785031288,83169.14990586776,250493.53759397817,-2.0315732734404386e-05,250493.53858170676,-250493.53757655027
16884.42211055276,151716.42608228093,85613.0316738997,243343.0643239843,-2.0315741504537453e-05,243343.0653117133,-243343.0643065568
17487.437185929648,149311.2873738252,88018.17038235543,236693.6407677891,-2.0315749637660203e-05,236693.64175552066,-236693.64075036417
18090.45226130653,146944.27644504953,90385.18131113112,230495.0297064681,-2.0315757317475825e-05,230495.03069420045,-230495.02968904396
18693.467336683418,144614.78909813528,92714.66865804538,224703.7858077311,-2.0315764284199487e-05,224703.7867954634,-224703.78579030692
19296.4824120603,142322.23087368312,95007.22688249752,219281.5509176699,-2.031577111852178e-05,219281.55190540216,-219281.55090024567
19899.497487437184,140066.01627758154,97263.44147859912,214194.89187485512,-2.0315777095529213e-05,214194.8928625872,-214194.89185743072
20502.51256281407,137845.56909227982,99483.88866390084,209414.15178424236,-2.031578289962628e-05,209414.15277197422,-209414.15176681773
21105.527638190953,135660.32230651198,101669.13544966865,204913.0552576617,-2.031578885286172e-05,204913.05624539306,-204913.05524023657
21708.54271356784,133509.7179268764,103819.73982930424,200668.41920152996,-2.0315794242819806e-05,200668.4201892607,-200668.41918410422
22311.557788944723,131393.20679179332,105936.2509643873,196659.3404791833,-2.0315798870613454e-05,196659.3414669156,-196659.3404617591
22914.572864321606,129310.24842990807,108019.20932627257,192867.05170754757,-2.031580339107228e-05,192867.05269528096,-192867.05169012447
23517.587939698493,127260.310927787,110069.14682839364,189274.8688228779,-2.031580810571679e-05,189274.86981061232,-189274.86880545583
24120.603015075376,125242.87079631985,112086.58695986078,185868.10540390297,-2.031581255049384e-05,185868.10639163788,-185868.1053864814
24723.61809045226,123257.41286560756,114072.04489057307,182633.08908198602,-2.031581621931191e-05,182633.09006972093,-182633.08906456444
25326.633165829146,121303.43012565305,116026.02763052759,179557.28423808527,-2.031581943640536e-05,179557.28522581983,-179557.28422066334
25929.64824120603,119380.42362255689,117949.03413362375,176630.1762223667,-2.0315823412844678e-05,176630.1772101009,-176630.1762049444
26532.66331658291,117487.90229745553,119841.55545872511,173840.5636031815,-2.031582669734441e-05,173840.56459091563,-173840.56358575914
27135.6783919598,115625.38285297182,121704.07490320882,171180.20156778026,-2.0315830005785284e-05,171180.20255551478,-171180.2015503583
27738.69346733668,113792.38966622979,123537.06808995084,168640.3892062088,-2.0315833100138363e-05,168640.39019394398,-168640.3891887875
28341.708542713568,111988.4546655993,125341.00309058135,166213.18445500263,-2.0315836091401934e-05,166213.1854427404,-166213.1844375839
28944.72361809045,110213.11719807654,127116.34055810412,163891.87389723465,-2.0315838928532855e-05,163891.87488497357,-163891.87387981708
29547.738693467334,108465.92391113054,128863.53384505013,161669.84058827808,-2.031584166587717e-05,161669.8415760191,-161669.8405708626
30150.75376884422,106746.42863722866,130583.02911895202,159540.62456945502,-2.0315844248657845e-05,159540.6255571994,-159540.62455204292
30753.768844221104,105054.1922915046,132275.26546467605,157499.79496135528,-2.03158466900235e-05,157499.79594910034,-157499.79494394385
31356.78391959799,103388.78273466883,133940.6750215118,155541.54523631596,-2.0315849007333676e-05,155541.54622406056,-155541.54521890407
31959.798994974873,101749.77468499771,135579.6830711829,153661.20679816746,-2.0315851782498245e-05,153661.20778591506,-153661.20678075857
32562.814070351757,100136.74960301939,137192.70815316116,151854.55822537918,-2.0315853715776872e-05,151854.55921312814,-151854.55820797166
33165.82914572864,98549.29564567049,138780.16211051008,150117.4890219678,-2.031585573813903e-05,150117.4900097172,-150117.48900456072
33768.84422110552,96987.00743538534,140342.45032079524,148446.45967383744,-2.0315857999642164e-05,148446.46066158725,-148446.45965643076
34371.85929648241,95449.4859619992,141879.97179418136,146837.67707914102,-2.0315860167439708e-05,146837.67806689092,-146837.67706173443
34974.874371859296,93936.33859134582,143393.11916483476,145288.11614191535,-2.0315861366610835e-05,145288.1171296642,-145288.1161245077
35577.88944723618,92447.1789469131,144882.27880926747,143794.77979325876,-2.0315863853443877e-05,143794.78078100792,-143794.77977585144
36180.90452261306,90981.62673493802,146347.83102124257,142354.95335970738,-2.0315865437266055e-05,142354.95434745649,-142354.9533423
36783.919597989945,89539.30774406219,147790.15001211842,140965.63529177872,-2.0315866849074412e-05,140965.6362795281,-140965.6352743716
37386.934673366835,88119.85473729738,149209.60301888324,139624.6238271946,-2.0315868361428185e-05,139624.62481494402,-139624.62380978753
37989.94974874372,86722.90664979834,150606.55110638225,138329.55466775654,-2.0315870150564847e-05,138329.55565550586,-138329.55465034937
38592.9648241206,85348.1058087654,151981.3519474152,137078.2539726693,-2.031587205772094e-05,137078.2549604185,-137078.25395526201
39195.979899497484,83995.09874571502,153334.3590104656,135868.61222481707,-2.0315873482176865e-05,135868.61321256662,-135868.61220741013
39798.99497487437,82663.54340420752,154665.9143519731,134698.87190598022,-2.031587477784207e-05,134698.87289372933,-134698.87188857284
40402.01005025126,81353.09508943635,155976.36266674427,133567.15457027938,-2.0315876002645342e-05,133567.15555802765,-133567.15455287116
41005.02512562814,80063.4209644573,157266.0367917233,132471.83115722684,-2.0315877389413162e-05,132471.8321449753,-132471.83113981882
41608.040201005024,78794.19314868332,158535.2646074973,131411.29912244357,-2.0315878757127203e-05,131411.30011019183,-131411.29910503534
42211.05527638191,77545.08427166412,159784.37348451652,130383.98486290115,-2.0315880054950292e-05,130383.98585064843,-130383.98484549194
42814.07035175879,76315.77854903237,161013.67920714826,129388.52496318688,-2.031588124514238e-05,129388.52595093298,-129388.52494577649
43417.08542713568,75105.96037714812,162223.49737903252,128423.60030468133,-2.031588238110542e-05,128423.60129242619,-128423.6002872697
44020.10050251256,73915.32008528356,163414.13767089706,127487.99638094327,-2.031588354476626e-05,127487.99736868714,-127487.99636353066
44623.115577889446,72743.556829839,164585.90092634162,126580.36732056826,-2.0315884687941467e-05,126580.36830831162,-126580.36730315514
45226.13065326633,71590.36781450127,165739.08994167935,125699.5799956884,-2.031588579594765e-05,125699.58098343179,-125699.57997827532
45829.14572864321,70455.45998480321,166873.9977713774,124844.75162268775,-2.031588679971561e-05,124844.75261043149,-124844.75160527501
46432.160804020095,69338.54497547608,167990.91278070456,124014.69921903536,-2.031588775214092e-05,124014.70020677955,-124014.69920162308
47035.175879396986,68239.33460070463,169090.12315547597,123208.4136359365,-2.031588868515917e-05,123208.41462368112,-123208.41361852465
47638.19095477387,67157.55090023893,170171.90685594166,122425.25182746205,-2.031588970665474e-05,122425.25281520736,-122425.25181005089
48241.20603015075,66092.91623670609,171236.5415194745,121664.15248119723,-2.031589071538614e-05,121664.1534689433,-121664.15246378683
48844.221105527635,65045.15800442187,172284.29975175872,120924.10712651921,-2.0315891590138366e-05,120924.10811426588,-120924.1071091094
49447.23618090452,64014.011460955415,173315.4462952252,120204.66877088822,-2.0315892469150033e-05,120204.66975863525,-120204.66875347878
50050.25125628141,62999.21019847557,174330.24755770504,119505.00335164763,-2.0315893333439426e-05,119505.00433939461,-119505.00333423814
50653.26633165829,62000.49623929146,175328.96151688916,118824.25904181044,-2.031589415861296e-05,118824.26002955675,-118824.25902440028
51256.281407035174,61017.615955607966,176311.84180057267,118161.85222440188,-2.0315894967220915e-05,118161.85321214762,-118161.85220699114
51859.29648241206,60050.31564923187,177279.14210694874,117517.11895095343,-2.0315895762945967e-05,117517.11993869886,-117517.11893354238
52462.31155778894,59098.35070183864,178231.107054342,116889.44361996374,-2.0315896532536216e-05,116889.44460770879,-116889.44360255232
53065.32663316582,58161.47688261683,179167.98087356382,116278.22878262558,-2.0315897280076873e-05,116278.22977037051,-116278.22876521404
53668.34170854271,57239.45423027191,180090.00352590872,115682.90519313155,-2.031589800797862e-05,115682.90618087686,-115682.90517572039
54271.3567839196,56332.04977033542,180997.4079858452,115102.95107235784,-2.0315898718394193e-05,115102.95206010331,-115102.95105494684
54874.37185929648,55439.02911820614,181890.42863797452,114537.83283411553,-2.0315899411674296e-05,114537.83382186104,-114537.83281670457
55477.38693467336,54560.16517037158,182769.29258580907,113987.06436255215,-2.031590008676918e-05,113987.06535029774,-113987.06434514126
56080.402010050246,53695.23671863518,183634.22103754545,113450.18575977863,-2.031590074438494e-05,113450.18674752426,-113450.18574236779
56683.417085427136,52844.01994613813,184485.43781004252,112926.72454476843,-2.0315901384746714e-05,112926.72553251406,-112926.72452735758
57286.43216080402,52006.29565044554,185323.16210573507,112416.23960378232,-2.0315902008796243e-05,112416.24059152797,-112416.23958637149
57889.4472361809,51181.853842209144,186147.60391397148,111918.35212205412,-2.0315902618873383e-05,111918.35310979988,-111918.3521046434
58492.462311557785,50370.478443210086,186958.97931297054,111432.64075667088,-2.0315903216259297e-05,111432.64174441693,-111432.64073926046
59095.47738693467,49571.96575178057,187757.49200440006,110958.73126725943,-2.0315903798737454e-05,110958.73225500567,-110958.7312498492
59698.49246231156,48786.11040905169,188543.34734712896,110496.25640732664,-2.031590436652913e-05,110496.25739507291,-110496.25638991644
60301.50753768844,48012.711502190265,189316.74625399036,110044.86158291517,-2.0315904919587117e-05,110044.86257066132,-110044.86156550485
60904.522613065325,47251.572487758756,190077.88526842184,109604.19924943194,-2.0315905458261657e-05,109604.20023717807,-109604.1992320216
61507.53768844221,46502.49952553614,190826.95823064446,109173.94621520465,-2.0315905981886115e-05,109173.94720295085,-109173.94619779437
62110.55276381909,45765.30079064575,191564.15696553484,108753.80357326118,-2.0315906494508717e-05,108753.8045610074,-108753.80355585093
62713.56783919598,45039.78883119465,192289.66892498595,108343.47990224522,-2.031590699771696e-05,108343.4808899914,-108343.47988483493
63316.582914572864,44325.77867338197,193003.67908279866,107942.68262840783,-2.0315907491694165e-05,107942.68361615411,-107942.68261099764
63919.59798994975,43623.08742722228,193706.37032895835,107551.1009166354,-2.031590797283383e-05,107551.10190438245,-107551.10089922597
64522.61306532663,42931.5362766566,194397.92147952403,107168.46720354339,-2.031590844155698e-05,107168.46819129208,-107168.4671861356
65125.62814070351,42250.948152459736,195078.5096037209,106794.57163795311,-2.0315908900207858e-05,106794.57262570325,-106794.57162054678
65728.6432160804,41581.149421291615,195748.30833488898,106429.18109527265,-2.031590934864101e-05,106429.18208302384,-106429.18107786737
66331.65829145728,40921.969036754635,196407.48871942598,106072.03828998028,-2.031590978611983e-05,106072.03927773228,-106072.03827257581
66934.67336683416,40273.23845655043,197056.21929963017,105722.81714892985,-2.0315910210134584e-05,105722.81813668358,-105722.8171315271
67537.68844221105,39634.79223247613,197694.6655237045,105381.27692035332,-2.0315910619794767e-05,105381.2779081098,-105381.27690295332
68140.70351758794,39006.467039544434,198322.99071663618,105047.38878050457,-2.0315911027266983e-05,105047.38976826347,-105047.388763107
68743.71859296483,38388.102615767646,198941.35514041298,104720.99355892399,-2.0315911436999954e-05,104720.99454668486,-104720.99354152838
69346.73366834171,37779.54120263319,199549.91655354743,104401.85398277911,-2.0315911841964465e-05,104401.85497054129,-104401.85396538481
69949.74874371859,37180.627277968306,200148.8304782123,104089.31409939431,-2.031591218807462e-05,104089.31508715797,-104089.3140820015
70552.76381909547,36591.20793335737,200738.24982282324,103783.49444869743,-2.0315912578896993e-05,103783.4954364628,-103783.49443130633
71155.77889447236,36011.13258666919,201318.32516951143,103484.57384447823,-2.031591298887612e-05,103484.57483224485,-103484.57382708837
71758.79396984924,35440.25308629002,201889.2046698906,103191.99521961389,-2.0315913235564147e-05,103191.99620738122,-103191.99520222475
72361.80904522612,34878.42365267496,202451.03410350563,102905.59221074646,-2.0315913582900693e-05,102905.59319851437,-102905.5921933579
72964.824120603,34325.50082275762,203003.95693342297,102625.25870179804,-2.031591410039479e-05,102625.25968956557,-102625.2586844091
73567.83919597989,33781.34340421035,203548.11435197026,102350.8870537951,-2.031591440500793e-05,102350.88804156218,-102350.88703640571
74170.85427135679,33245.812439558606,204083.645316622,102082.31150682022,-2.0315914508482594e-05,102082.31249458659,-102082.31148943011
74773.86934673367,32718.771173485195,204610.68658269543,101819.40402631398,-2.0315914952698723e-05,101819.40501408008,-101819.40400892361
75376.88442211055,32200.085019372797,205129.37273680783,101561.75100550496,-2.0315915489488256e-05,101561.75199327039,-101561.75098811391
75979.89949748744,31689.62152852971,205639.8362276509,101309.86011928333,-2.031591555927926e-05,101309.8611070471,-101309.86010189062
76582.91457286432,31187.250347592224,206142.20740858835,101062.87732055208,-2.0315915957405112e-05,101062.87830831553,-101062.87730315905
77185.9296482412,30692.84318702908,206636.6145691515,100821.17449367772,-2.031591624414366e-05,100821.17548144083,-100821.17447628436
77788.94472361809,30206.273794491266,207123.18396168933,100584.38480168098,-2.031591645657792e-05,100584.385789443,-100584.38478428652
78391.95979899497,29727.417918889638,207602.03983729094,100352.22420680817,-2.0315916783617596e-05,100352.22519456969,-100352.22418941322
78994.97487437185,29256.15327944245,208073.30447673815,100124.87377633112,-2.0315917061965664e-05,100124.87476409375,-100124.87375893728
79597.98994974873,28792.359533058763,208537.09822312184,99902.44925440398,-2.0315917358624984e-05,99902.4502421678,-99902.44923701133
80201.00502512562,28335.91824520478,208993.53951097582,99684.06499912271,-2.0315917624861534e-05,99684.06598688537,-99684.0649817289
80804.02010050252,27886.71285865574,209442.74489752488,99470.24521392878,-2.0315917703097058e-05,99470.24620169066,-99470.24519653419
81407.0351758794,27444.628662730778,209884.8290934498,99260.83204802517,-2.0315918158757277e-05,99260.83303578694,-99260.83203063047
82010.05025125628,27009.55276632446,210319.9049898561,99055.56043248263,-2.031591829616938e-05,99055.56142024389,-99055.56041508741
82613.06532663316,26581.37406785012,210748.08368833046,98854.15086748911,-2.031591854883722e-05,98854.15185524966,-98854.15085009318
83216.08040201005,26159.98323861577,211169.4745175648,98656.9658023184,-2.0315919068936544e-05,98656.96679007792,-98656.96578492144
83819.09547738693,25745.27278806793,211584.18496811265,98463.5938748914,-2.0315919017963968e-05,98463.59486265038,-98463.5938574939
84422.11055276381,25337.136763354472,211992.3209928261,98274.00280989394,-2.0315919143428406e-05,98274.00379765291,-98274.00279249644
85025.1256281407,24935.4708594308,212393.9868967498,98088.17492959139,-2.0315919764099103e-05,98088.17591734992,-98088.17491219344
85628.14070351758,24540.172504287075,212789.2852518935,97905.95286483351,-2.0315919746911842e-05,97905.95385259196,-97905.95284743549
86231.15577889446,24151.140777725097,213178.3169784555,97727.23784507638,-2.031591999832438e-05,97727.23883283458,-97727.23782767811
86834.17085427136,23768.27669091812,213561.18106526247,97552.05536686118,-2.0315920429155363e-05,97552.05635461923,-97552.05534946275
87437.18592964824,23391.48268642061,213937.97506975997,97380.24170555816,-2.0315920519880625e-05,97380.24269331605,-97380.24168815957
88040.20100502513,23020.66258926233,214308.79516691825,97211.74506356925,-2.0315920565353436e-05,97211.74605132712,-97211.74504617065
