Time (s),[o],[so],[bcfa],[ofa]
0.0,127034295442.329,0.0,0.00391508953809774,0.0
0.010000833402783566,127034295442.32884,0.00013935051629766895,0.003915086859284175,2.678813566481972e-09
0.02000166680556713,127034295442.3287,0.0002786958432461921,0.003915078990909925,1.0547187816492342e-08
0.0300025002083507,127034295442.32858,0.00041803622700109587,0.003915066179476003,2.3358621739160455e-08
0.04000333361113426,127034295442.32843,0.0005573719124653938,0.003915048669850573,4.086824716871904e-08
0.05000416701391783,127034295442.3283,0.0006967031296687659,0.003915026692054152,6.284604359052189e-08
0.0600050004167014,127034295442.32816,0.0008360300969834018,0.003915000464323244,8.907377449898194e-08
0.07000583381948496,127034295442.32802,0.0009753530229066412,0.003914970195176382,1.1934292136084082e-07
0.08000666722226853,127034295442.32788,0.0011146721054930964,0.003914936083013713,1.5345508403081488e-07
0.0900075006250521,127034295442.32774,0.0012539875331922061,0.003914898316103632,1.9122199411189246e-07
0.10000833402783565,127034295442.3276,0.001393299484038713,0.003914857072124336,2.3246597340846358e-07
0.11000916743061923,127034295442.32745,0.001532608127309884,0.003914812520287281,2.770178104624586e-07
0.1200100008334028,127034295442.32732,0.0016719136242989167,0.003914764822035527,3.2471606221697656e-07
0.13001083423618637,127034295442.32718,0.0018112161286426226,0.003914714131136761,3.754069609826008e-07
0.1400116676389699,127034295442.32704,0.0019505157866397083,0.003914660593949532,4.2894414821157e-07
0.15001250104175348,127034295442.3269,0.0020898127376972405,0.003914604349871999,4.851882257455682e-07
0.16001333444453705,127034295442.32675,0.0022291071140128488,0.0039145455310365725,5.44007061171697e-07
0.17001416784732062,127034295442.32661,0.002368399041932523,0.003914484263846222,6.052742515215911e-07
0.1800150012501042,127034295442.32648,0.002507688640464737,0.0039144206672716685,6.688708260761477e-07
0.19001583465288774,127034295442.32632,0.0026469760242605477,0.003914354855843054,7.34682254690894e-07
0.2000166680556713,127034295442.32619,0.0027862613009911265,0.003914286937190169,8.02600907576711e-07
0.21001750145845488,127034295442.32605,0.0029255445741291964,0.003914217014900714,8.725231970314091e-07
0.22001833486123845,127034295442.3259,0.0030648259413210586,0.003914145186634842,9.443514629026217e-07
0.23001916826402202,127034295442.32576,0.0032041054960483817,0.003914071545920986,1.0179921767585246e-06
0.2400200016668056,127034295442.32562,0.0033433833269530056,0.003913996181424328,1.093356673417128e-06
0.25002083506958916,127034295442.32549,0.0034826595183765734,0.003913919177486784,1.1703606109610829e-06
0.26002166847237274,127034295442.32533,0.0036219341508498793,0.003913840614635432,1.248923462313215e-06
0.27002250187515625,127034295442.3252,0.0037612073004407577,0.003913760568922135,1.3289691756113102e-06
0.2800233352779398,127034295442.32506,0.0039004790405517548,0.003913679113791836,1.4104243059100942e-06
0.2900241686807234,127034295442.32492,0.004039749439775938,0.003913596317838511,1.4932202592345405e-06
0.30002500208350696,127034295442.32477,0.0041790185634023955,0.003913512246353626,1.5772917441201974e-06
0.31002583548629054,127034295442.32463,0.0043182864752424905,0.003913426963124586,1.6625749731591674e-06
0.3200266688890741,127034295442.3245,0.0044575532335315,0.003913340526360252,1.7490117374941095e-06
0.3300275022918577,127034295442.32436,0.004596818894634711,0.003913252992349132,1.8365457486128153e-06
0.34002833569464125,127034295442.32422,0.004736083513465534,0.003913164415850157,1.925122247588747e-06
0.3500291690974248,127034295442.32408,0.0048753471404724006,0.003913074847154689,2.014690943056448e-06
0.3600300025002084,127034295442.32393,0.005014609824279122,0.003912984334986219,2.1052031115263744e-06
0.37003083590299196,127034295442.32379,0.005153871611205023,0.00391289292597437,2.1966121233746383e-06
0.3800316693057755,127034295442.32365,0.005293132545250162,0.00391280066424243,2.288873855315167e-06
0.39003250270855905,127034295442.32352,0.005432392668266377,0.003912707591602713,2.381946495032689e-06
0.4000333361113426,127034295442.32338,0.0055716520201707555,0.003912613748037108,2.47579006063754e-06
0.4100341695141262,127034295442.32324,0.0057109106390929865,0.003912519171877411,2.570366220333325e-06
0.42003500291690976,127034295442.32309,0.005850168560936065,0.0039124238988584425,2.6656392393027754e-06
0.43003583631969333,127034295442.32295,0.005989425820235062,0.003912327963467039,2.7615746307062074e-06
0.4400366697224769,127034295442.32281,0.006128682449882057,0.003912231398449234,2.8581396485100926e-06
0.4500375031252605,127034295442.32268,0.006267938480651695,0.003912134234684749,2.9553034129955445e-06
0.46003833652804405,127034295442.32254,0.006407193942312558,0.003912036501717448,3.0530363802969215e-06
0.4700391699308276,127034295442.3224,0.006546448863020688,0.0039119382275826925,3.1513105150524253e-06
0.4800400033336112,127034295442.32227,0.006685703269324416,0.0039118394389756886,3.2500991220558237e-06
0.4900408367363947,127034295442.32211,0.00682495718667926,0.003911740161289215,3.3493768085298214e-06
0.5000416701391783,127034295442.32198,0.006964210639202548,0.003911640418552656,3.449119545089119e-06
0.5100425035419619,127034295442.32184,0.007103463649806527,0.003911540233406067,3.549304691678029e-06
0.5200433369447455,127034295442.3217,0.007242716240337201,0.003911439627850942,3.6499102468029844e-06
0.530044170347529,127034295442.32156,0.0073819684315949005,0.003911338622812964,3.7509152847814183e-06
0.5400450037503125,127034295442.32141,0.0075212202434216825,0.0039112372383760625,3.8522997216827286e-06
0.5500458371530961,127034295442.32127,0.007660471694775115,0.003911135493879705,3.9540442180397935e-06
0.5600466705558796,127034295442.32114,0.007799722802860517,0.003911033405335853,4.056132761891611e-06
0.5700475039586632,127034295442.321,0.007938973584532088,0.00391093098930485,4.158548792894872e-06
0.5800483373614468,127034295442.32086,0.008078224056492486,0.003910828263350829,4.261274746915976e-06
0.5900491707642304,127034295442.32071,0.008217474234426278,0.003910725243462089,4.364294635655382e-06
0.6000500041670139,127034295442.32057,0.008356724133437039,0.003910621945182664,4.467592915080262e-06
0.6100508375697975,127034295442.32043,0.008495973768119048,0.003910518383703674,4.571154394070869e-06
0.6200516709725811,127034295442.3203,0.008635223150110996,0.003910414569294621,4.67496880312329e-06
0.6300525043753646,127034295442.32016,0.008774472292624364,0.003910310515642727,4.779022455017853e-06
0.6400533377781482,127034295442.32002,0.008913721208017502,0.0039102062353219245,4.883302775820092e-06
0.6500541711809318,127034295442.31987,0.009052969907829807,0.003910101739814785,4.9877982829598495e-06
0.6600550045837154,127034295442.31973,0.009192218402527059,0.003909997039658603,5.092498439141377e-06
0.6700558379864989,127034295442.3196,0.009331466702288928,0.0039098921449409385,5.197393156806105e-06
0.6800566713892825,127034295442.31946,0.009470714816913082,0.003909787065241328,5.302472856416526e-06
0.6900575047920661,127034295442.31932,0.0096099627555565,0.003909681809470953,5.407728626791601e-06
0.7000583381948496,127034295442.31917,0.009749210527258273,0.003909576386737122,5.5131513606222835e-06
0.7100591715976332,127034295442.31903,0.009888458140628588,0.00390947080566951,5.618732428233408e-06
0.7200600050004168,127034295442.3189,0.010027705603589792,0.003909365073853237,5.7244642445073426e-06
0.7300608384032004,127034295442.31876,0.010166952923882228,0.003909259198831739,5.830339266004335e-06
0.7400616718059839,127034295442.31862,0.010306200108619505,0.003909153187850071,5.93635024767351e-06
0.7500625052087674,127034295442.31847,0.010445447164362926,0.0039090470478870334,6.042490210710816e-06
0.760063338611551,127034295442.31833,0.010584694097910203,0.00390894078563773,6.148752460014767e-06
0.7700641720143345,127034295442.31819,0.01072394091554252,0.00390883440760315,6.255130494594773e-06
0.7800650054171181,127034295442.31805,0.010863187623089177,0.00390872791928897,6.361618808773826e-06
0.7900658388199017,127034295442.3179,0.011002434225809404,0.003908621324608099,6.468213489645436e-06
0.8000666722226852,127034295442.31776,0.011141680729352862,0.003908514630061791,6.574908035953681e-06
0.8100675056254688,127034295442.31763,0.0112809271389285,0.003908407840984011,6.681697113733197e-06
0.8200683390282524,127034295442.31749,0.011420173459574233,0.003908300962662241,6.788575435503822e-06
0.830069172431036,127034295442.31735,0.011559419696184969,0.00390819400038785,6.8955377098944725e-06
0.8400700058338195,127034295442.31721,0.011698665853540645,0.003908086959506478,7.002578591267017e-06
0.8500708392366031,127034295442.31708,0.011837911936334258,0.003907979845468404,7.109692629340139e-06
0.8600716726393867,127034295442.31694,0.011977157947229724,0.003907872658997771,7.21687909997247e-06
0.8700725060421702,127034295442.3168,0.012116403890078144,0.003907765404041881,7.324134055862174e-06
0.8800733394449538,127034295442.31667,0.012255649769138522,0.0039076580858214425,7.431452276301496e-06
0.8900741728477374,127034295442.31651,0.012394895587944535,0.003907550708003889,7.538830093854695e-06
0.900075006250521,127034295442.31638,0.012534141349868749,0.003907443274082157,7.646264015586948e-06
0.9100758396533045,127034295442.31625,0.012673387057678943,0.003907335786564981,7.75375153276228e-06
0.9200766730560881,127034295442.3161,0.012812632714145409,0.003907228248055776,7.861290041967275e-06
0.9300775064588717,127034295442.31596,0.012951878322152988,0.003907120661441536,7.968876656207422e-06
0.9400783398616552,127034295442.31583,0.013091123884237834,0.003907013029047981,8.076509049761867e-06
0.9500791732644388,127034295442.31569,0.013230369402769249,0.003906905352953895,8.18418514384839e-06
0.9600800066672224,127034295442.31555,0.013369614880300314,0.003906797636066536,8.291902031206923e-06
0.9700808400700058,127034295442.31541,0.013508860319233765,0.003906689881058735,8.399657039007677e-06
0.9800816734727894,127034295442.31528,0.013648105721498454,0.0039065820893389915,8.507448758751688e-06
0.990082506875573,127034295442.31514,0.013787351089105813,0.003906474262769679,8.615275328064045e-06
1.0000833402783567,127034295442.315,0.013926596423975032,0.0039063664031016385,8.723134996104623e-06
1.0100841736811401,127034295442.31487,0.014065841728011532,0.003906258512377541,8.83102572020215e-06
1.0200850070839238,127034295442.31473,0.014205087003077993,0.0039061505927241477,8.938945373595087e-06
1.0300858404867073,127034295442.31459,0.01434433225087191,0.0039060426456124803,9.046892485262436e-06
1.040086673889491,127034295442.31445,0.014483577473095742,0.003905934672783064,9.154865314679056e-06
1.0500875072922744,127034295442.3143,0.014622822671416883,0.003905826675974991,9.26286212275183e-06
1.060088340695058,127034295442.31418,0.014762067847222764,0.003905718656534034,9.370881563708961e-06
1.0700891740978415,127034295442.31404,0.014901313001618843,0.0039056106154075417,9.478922690201265e-06
1.080090007500625,127034295442.31389,0.015040558136255475,0.003905502554459882,9.586983637860993e-06
1.0900908409034087,127034295442.31375,0.015179803252489682,0.0039053944751352683,9.695062962474697e-06
1.1000916743061921,127034295442.31361,0.015319048351642472,0.0039052863788658484,9.803159231894513e-06
1.1100925077089758,127034295442.31348,0.015458293434821462,0.00390517826674211,9.911271355632534e-06
1.1200933411117593,127034295442.31334,0.015597538502756615,0.003905070139207358,1.00193988903852e-05
1.130094174514543,127034295442.3132,0.015736783556746424,0.0039049619977951085,1.0127540302634532e-05
1.1400950079173264,127034295442.31306,0.015876028597782522,0.0039048538435153338,1.0235694582408995e-05
1.1500958413201101,127034295442.31293,0.01601527362680365,0.0039047456773183987,1.034386077934417e-05
1.1600966747228936,127034295442.31279,0.01615451864468573,0.003904637500080901,1.0452038016841758e-05
1.1700975081256773,127034295442.31265,0.016293763652215364,0.0039045293125711564,1.0560225526586398e-05
1.1800983415284607,127034295442.31252,0.016433008650192486,0.0039044211155734505,1.0668422524292282e-05
1.1900991749312444,127034295442.31238,0.01657225363934485,0.0039043129097809984,1.0776628316744523e-05
1.2001000083340279,127034295442.31224,0.016711498620354325,0.003904204695826265,1.0884842271477732e-05
1.2101008417368115,127034295442.31209,0.016850743593999646,0.003904096474522465,1.0993063575277809e-05
1.220101675139595,127034295442.31195,0.016989988561697443,0.0039039882478188563,1.1101290278886415e-05
1.2301025085423787,127034295442.31181,0.017129233523530053,0.0039038800154226725,1.1209522675070272e-05
1.2401033419451621,127034295442.31168,0.017268478480043713,0.003903771777850533,1.1317760247209543e-05
1.2501041753479458,127034295442.31154,0.017407723431729846,0.0039036635355524383,1.1426002545304344e-05
1.2601050087507293,127034295442.3114,0.017546968379025106,0.003903555288911768,1.153424918597477e-05
1.270105842153513,127034295442.31126,0.017686213322311333,0.003903447038245282,1.1642499852460873e-05
1.2801066755562964,127034295442.31111,0.01782545826191559,0.00390333878380312,1.1750754294622672e-05
1.2901075089590799,127034295442.31097,0.017964703198110128,0.0039032305257688028,1.185901232894015e-05
1.3001083423618636,127034295442.31084,0.018103948131112418,0.0039031222642592293,1.1967273838513257e-05
1.310109175764647,127034295442.3107,0.018243193061489495,0.0039030139999017906,1.2075538195952335e-05
1.3201100091674307,127034295442.31056,0.018382437993195343,0.0039029057381694955,1.218379992824746e-05
1.3301108425702142,127034295442.31042,0.01852168292370563,0.003902797475300767,1.2292062796976e-05
1.3401116759729979,127034295442.31029,0.018660927853270948,0.0039026892115061216,1.2400326591621306e-05
1.3501125093757813,127034295442.31013,0.01880017278210034,0.00390258094694835,1.2508591149392844e-05
1.360113342778565,127034295442.31,0.018939417710361284,0.0039024726817425168,1.261685635522618e-05
1.3701141761813485,127034295442.30986,0.019078662638179714,0.00390236441595596,1.2725122141782998e-05
1.3801150095841321,127034295442.30972,0.019217907565639993,0.0039022561496082917,1.2833388489451086e-05
1.3901158429869156,127034295442.30959,0.019357152492784947,0.0039021478826713986,1.2941655426344346e-05
1.4001166763896993,127034295442.30945,0.01949639741961583,0.00390203961506944,1.3049923028302782e-05
1.4101175097924827,127034295442.30931,0.019635642346295022,0.0039019313469380867,1.3158191159655913e-05
1.4201183431952664,127034295442.30916,0.019774887278025073,0.0039018230848653517,1.3266453232390733e-05
1.4301191765980499,127034295442.30902,0.01991413221121239,0.0039017148241934836,1.3374713904259121e-05
1.4401200100008336,127034295442.30888,0.02005337714599931,0.0039016065650488143,1.3482973048928301e-05
1.450120843403617,127034295442.30875,0.020192622082505107,0.0039014983075335774,1.3591230564165287e-05
1.4601216768064007,127034295442.30861,0.02033186702082595,0.0039013900517259055,1.3699486371836859e-05
1.4701225102091842,127034295442.30847,0.020471111961034925,0.003901281797679833,1.3807740417909591e-05
1.4801233436119678,127034295442.30833,0.020610356903182043,0.0039011735454252926,1.3915992672449823e-05
1.4901241770147513,127034295442.30818,0.020749601847294227,0.003901065294968119,1.4024243129623688e-05
1.5001250104175348,127034295442.30804,0.020888846793375306,0.0039009570462900456,1.4132491807697082e-05
1.5101258438203184,127034295442.3079,0.021028091741406036,0.0039008487993487067,1.4240738749035697e-05
1.520126677223102,127034295442.30777,0.021167336694976547,0.0039007405582423818,1.434897985536059e-05
1.5301275106258856,127034295442.30763,0.02130658165177708,0.0039006323203072974,1.4457217790445259e-05
1.540128344028669,127034295442.3075,0.021445826611859127,0.0039005240855892907,1.4565452508451828e-05
1.5501291774314527,127034295442.30736,0.021585071575326367,0.003900415854196414,1.467368390132835e-05
1.5601300108342362,127034295442.3072,0.021724316542271662,0.0039003076262266643,1.4781911871078436e-05
1.5701308442370199,127034295442.30707,0.021863561512777012,0.0039001994017679813,1.4890136329761234e-05
1.5801316776398033,127034295442.30693,0.022002806486913603,0.0039000911808982513,1.4998357199491449e-05
1.590132511042587,127034295442.3068,0.022142051464741776,0.003899982963685303,1.5106574412439323e-05
1.6001333444453705,127034295442.30666,0.022281296446311043,0.003899874750186912,1.521478791083065e-05
1.6101341778481542,127034295442.30652,0.02242054143166007,0.003899766540450796,1.532299764694677e-05
1.6201350112509376,127034295442.30638,0.022559786422134846,0.0038996583357572734,1.5431202340469553e-05
1.6301358446537213,127034295442.30623,0.022699031417049157,0.0038995501354710145,1.5539402626728102e-05
1.6401366780565048,127034295442.30609,0.022838276416388116,0.00389944193958972,1.5647598508022786e-05
1.6501375114592884,127034295442.30595,0.022977521420231132,0.003899333748200156,1.5755789897586986e-05
1.660138344862072,127034295442.30582,0.023116766428651597,0.00389922556138356,1.586397671418283e-05
1.6701391782648556,127034295442.30568,0.023256011441716854,0.0038991173792156416,1.597215888210116e-05
1.680140011667639,127034295442.30554,0.023395256459488225,0.003899009201766581,1.6080336331161552e-05
1.6901408450704227,127034295442.3054,0.02353450148202098,0.0038989010291010304,1.6188508996712313e-05
1.7001416784732062,127034295442.30525,0.023673746509364383,0.003898792861278112,1.6296676819630486e-05
1.7101425118759896,127034295442.30511,0.023812991541561638,0.003898684698351421,1.6404839746321834e-05
1.7201433452787733,127034295442.30498,0.023952236579002823,0.0038985765405783347,1.6512997519408024e-05
1.7301441786815568,127034295442.30484,0.024091481621564957,0.003898468387909971,1.6621150187771493e-05
1.7401450120843405,127034295442.3047,0.024230726669245473,0.0038983602403669213,1.6729297730821336e-05
1.750145845487124,127034295442.30457,0.024369971722087803,0.0038982520979951056,1.6837440102637197e-05
1.7601466788899076,127034295442.30443,0.024509216780130735,0.0038981439608357427,1.694557726199979e-05
1.770147512292691,127034295442.30428,0.02464846184340842,0.0038980358289253518,1.7053709172390914e-05
1.7801483456954748,127034295442.30414,0.024787706911950366,0.003897927702295749,1.716183580199344e-05
1.7901491790982582,127034295442.304,0.024926951985781452,0.0038978195809740513,1.7269957123691318e-05
1.800150012501042,127034295442.30386,0.025066197064921917,0.003897711464982673,1.7378073115069573e-05
1.8101508459038254,127034295442.30373,0.025205442149387358,0.003897603354339328,1.7486183758414323e-05
1.820151679306609,127034295442.30359,0.02534468723945587,0.0038974952492861884,1.7594288811554453e-05
1.8301525127093925,127034295442.30345,0.025483932335047033,0.0038973871497571507,1.7702388340592086e-05
1.8401533461121762,127034295442.3033,0.02562317743612226,0.003897279055721285,1.781048237645813e-05
1.8501541795149596,127034295442.30316,0.025762422542698647,0.0038971709671946934,1.7918570903049316e-05
1.8601550129177433,127034295442.30302,0.025901667654789788,0.0038970628841897685,1.8026653907974463e-05
1.8701558463205268,127034295442.30289,0.026040912772405805,0.0038969548067151884,1.813473138255449e-05
1.8801566797233105,127034295442.30275,0.026180157895553335,0.0038968467347759205,1.8242803321822405e-05
1.890157513126094,127034295442.30261,0.02631940302423552,0.0038967386683732195,1.835086972452332e-05
1.9001583465288776,127034295442.30247,0.026458648158452027,0.0038966306075046285,1.845893059311442e-05
1.910159179931661,127034295442.30232,0.026597893298199032,0.0038965225521639777,1.8566985933765014e-05
1.9201600133344447,127034295442.30219,0.026737138443919502,0.003896414502830758,1.8675035266984472e-05
1.9301608467372282,127034295442.30205,0.02687638359550385,0.003896306459384004,1.8783078713738398e-05
1.9401616801400117,127034295442.30191,0.027015628752823664,0.0038961984216823657,1.8891116415376822e-05
